Rho,Potential
-10.0,-5.1050564486748524e-05
-9.98999499749875,-5.1374026041748036e-05
-9.9799899949975,-5.1699953548911476e-05
-9.969984992496249,-5.2028368875747815e-05
-9.959979989994997,-5.2359294110043894e-05
-9.949974987493746,-5.269275156234232e-05
-9.939969984992496,-5.302876376845096e-05
-9.929964982491246,-5.336735349198265e-05
-9.919959979989995,-5.3708543726927186e-05
-9.909954977488745,-5.4052357700254775e-05
-9.899949974987495,-5.4398818874552195e-05
-9.889944972486242,-5.474795095069214e-05
-9.879939969984992,-5.509977787053528e-05
-9.869934967483742,-5.545432381966647e-05
-9.859929964982491,-5.581161323016537e-05
-9.849924962481241,-5.617167078341133e-05
-9.83991995997999,-5.653452141292386e-05
-9.829914957478739,-5.690019030723861e-05
-9.819909954977488,-5.726870291281923e-05
-9.809904952476238,-5.7640084937006786e-05
-9.799899949974987,-5.8014362351005236e-05
-9.789894947473737,-5.8391561392905196e-05
-9.779889944972487,-5.877170857074589e-05
-9.769884942471236,-5.915483066561559e-05
-9.759879939969984,-5.954095473479151e-05
-9.749874937468734,-5.993010811491921e-05
-9.739869934967484,-6.032231842523288e-05
-9.729864932466233,-6.071761357081581e-05
-9.719859929964983,-6.111602174590308e-05
-9.709854927463732,-6.151757143722547e-05
-9.699849924962482,-6.192229142739684e-05
-9.68984492246123,-6.233021079834423e-05
-9.67983991995998,-6.274135893478153e-05
-9.66983491745873,-6.315576552772843e-05
-9.659829914957479,-6.35734605780737e-05
-9.649824912456229,-6.399447440018427e-05
-9.639819909954978,-6.441883762556093e-05
-9.629814907453726,-6.484658120654071e-05
-9.619809904952476,-6.527773642004672e-05
-9.609804902451225,-6.571233487138686e-05
-9.599799899949975,-6.615040849810113e-05
-9.589794897448725,-6.659198957385857e-05
-9.579789894947474,-6.703711071240432e-05
-9.569784892446224,-6.74858048715586e-05
-9.559779889944972,-6.793810535726657e-05
-9.549774887443721,-6.839404582770088e-05
-9.539769884942471,-6.885366029741811e-05
-9.52976488244122,-6.93169831415685e-05
-9.51975987993997,-6.978404910016047e-05
-9.50975487743872,-7.025489328238164e-05
-9.499749874937468,-7.07295511709747e-05
-9.489744872436217,-7.120805862667159e-05
-9.479739869934967,-7.169045189268533e-05
-9.469734867433717,-7.217676759926042e-05
-9.459729864932466,-7.266704276828287e-05
-9.449724862431216,-7.316131481795115e-05
-9.439719859929966,-7.365962156750778e-05
-9.429714857428714,-7.416200124203383e-05
-9.419709854927463,-7.466849247730564e-05
-9.409704852426213,-7.517913432471676e-05
-9.399699849924962,-7.56939662562637e-05
-9.389694847423712,-7.621302816959816e-05
-9.379689844922462,-7.67363603931456e-05
-9.369684842421211,-7.726400369129226e-05
-9.35967983991996,-7.779599926964023e-05
-9.349674837418709,-7.833238878033243e-05
-9.339669834917459,-7.887321432744882e-05
-9.329664832416208,-7.941851847247363e-05
-9.319659829914958,-7.996834423983606e-05
-9.309654827413707,-8.052273512252415e-05
-9.299649824912457,-8.108173508777432e-05
-9.289644822411205,-8.164538858283646e-05
-9.279639819909955,-8.221374054081585e-05
-9.269634817408704,-8.278683638659448e-05
-9.259629814907454,-8.336472204283055e-05
-9.249624812406203,-8.394744393603893e-05
-9.239619809904953,-8.453504900275349e-05
-9.229614807403703,-8.512758469577232e-05
-9.21960980490245,-8.572509899048701e-05
-9.2096048024012,-8.632764039129688e-05
-9.19959979989995,-8.693525793811087e-05
-9.1895947973987,-8.754800121293615e-05
-9.17958979489745,-8.816592034655688e-05
-9.169584792396199,-8.878906602530265e-05
-9.159579789894947,-8.941748949790948e-05
-9.149574787393696,-9.005124258247307e-05
-9.139569784892446,-9.069037767349782e-05
-9.129564782391196,-9.133494774904105e-05
-9.119559779889945,-9.198500637795432e-05
-9.109554777388695,-9.26406077272245e-05
-9.099549774887445,-9.330180656941412e-05
-9.089544772386192,-9.39686582902045e-05
-9.079539769884942,-9.464121889604096e-05
-9.069534767383692,-9.531954502188411e-05
-9.059529764882441,-9.600369393906689e-05
-9.049524762381191,-9.669372356325936e-05
-9.03951975987994,-9.738969246254377e-05
-9.029514757378688,-9.809165986560017e-05
-9.019509754877438,-9.879968567000501e-05
-9.009504752376188,-9.951383045064504e-05
-8.999499749874937,-0.00010023415546824679
-8.989494747373687,-0.00010096072267802397
-8.979489744872437,-0.00010169359473844572
-8.969484742371186,-0.00010243283502012483
-8.959479739869934,-0.00010317850761483132
-8.949474737368684,-0.0001039306773446294
-8.939469734867433,-0.00010468940977114384
-8.929464732366183,-0.00010545477120495322
-8.919459729864933,-0.00010622682871511575
-8.909454727363682,-0.00010700565013882782
-8.899449724862432,-0.00010779130409121731
-8.88944472236118,-0.00010858385997527465
-8.87943971985993,-0.0001093833879919221
-8.86943471735868,-0.00011018995915022571
-8.859429714857429,-0.0001110036452777499
-8.849424712356178,-0.00011182451903105764
-8.839419709854928,-0.00011265265390635925
-8.829414707353678,-0.00011348812425031046
-8.819409704852426,-0.0001143310052709643
-8.809404702351175,-0.00011518137304887542
-8.799399699849925,-0.00011603930454836465
-8.789394697348675,-0.00011690487762894089
-8.779389694847424,-0.00011777817105688558
-8.769384692346174,-0.00011865926451700218
-8.759379689844923,-0.00011954823862453233
-8.749374687343671,-0.00012044517493724178
-8.739369684842421,-0.00012135015596767814
-8.72936468234117,-0.00012226326519560452
-8.71935967983992,-0.00012318458708060977
-8.70935467733867,-0.00012411420707489994
-8.69934967483742,-0.00012505221163627215
-8.689344672336167,-0.00012599868824127514
-8.679339669834917,-0.00012695372539855762
-8.669334667333667,-0.00012791741266241077
-8.659329664832416,-0.00012888984064650247
-8.649324662331166,-0.00012987110103781203
-8.639319659829916,-0.00013086128661076422
-8.629314657328663,-0.0001318604912415687
-8.619309654827413,-0.00013286880992276448
-8.609304652326163,-0.00013388633877797816
-8.599299649824912,-0.00013491317507689337
-8.589294647323662,-0.00013594941725043828
-8.579289644822412,-0.00013699516490619314
-8.569284642321161,-0.00013805051884402367
-8.55927963981991,-0.0001391155810719396
-8.549274637318659,-0.00014019045482218515
-8.539269634817408,-0.00014127524456756586
-8.529264632316158,-0.0001423700560380116
-8.519259629814908,-0.00014347499623738338
-8.509254627313657,-0.0001445901734605257
-8.499249624812407,-0.00014571569731056818
-8.489244622311155,-0.0001468516787164834
-8.479239619809904,-0.00014799822995089943
-8.469234617308654,-0.00014915546464817746
-8.459229614807404,-0.00015032349782275408
-8.449224612306153,-0.00015150244588775367
-8.439219609804903,-0.00015269242667387725
-8.429214607303653,-0.00015389355944856877
-8.4192096048024,-0.0001551059649354657
-8.40920460230115,-0.00015632976533413783
-8.3991995997999,-0.00015756508434011858
-8.38919459729865,-0.0001588120471652343
-8.379189594797399,-0.00016007078055823475
-8.369184592296149,-0.00016134141282573146
-8.359179589794898,-0.00016262407385344774
-8.349174587293646,-0.0001639188951277858
-8.339169584792396,-0.00016522600975771477
-8.329164582291146,-0.00016654555249698906
-8.319159579789895,-0.00016787765976669563
-8.309154577288645,-0.00016922246967814112
-8.299149574787394,-0.0001705801220560818
-8.289144572286144,-0.00017195075846230303
-8.279139569784892,-0.00017333452221955282
-8.269134567283642,-0.00017473155843583405
-8.259129564782391,-0.00017614201402906693
-8.24912456228114,-0.00017756603775211926
-8.23911955977989,-0.00017900378021821678
-8.229114557278638,-0.0001804553939267376
-8.219109554777388,-0.0001819210332893967
-8.209104552276138,-0.00018340085465682848
-8.199099549774887,-0.00018489501634557062
-8.189094547273637,-0.00018640367866545982
-8.179089544772387,-0.00018792700394744229
-8.169084542271136,-0.00018946515657180938
-8.159079539769884,-0.000191018302996863
-8.149074537268634,-0.00019258661178801626
-8.139069534767383,-0.00019417025364734317
-8.129064532266133,-0.00019576940144357572
-8.119059529764883,-0.0001973842302425624
-8.109054527263632,-0.0001990149173381933
-8.099049524762382,-0.00020066164228379953
-8.08904452226113,-0.0002023245869240344
-8.07903951975988,-0.00020400393542724493
-8.069034517258629,-0.00020569987431834325
-8.059029514757379,-0.00020741259251218233
-8.049024512256128,-0.0002091422813474474
-8.039019509754878,-0.000210889134621071
-8.029014507253628,-0.00021265334862317998
-8.019009504752376,-0.00021443512217258362
-8.009004502251125,-0.0002162346566528094
-7.998999499749875,-0.00021805215604870214
-7.988994497248624,-0.00021988782698358688
-7.978989494747374,-0.00022174187875701143
-7.968984492246124,-0.0002236145233830768
-7.9589794897448725,-0.00022550597562936224
-7.948974487243621,-0.00022741645305646014
-7.938969484742371,-0.00022934617605812477
-7.9289644822411205,-0.00023129536790205242
-7.91895947973987,-0.00023326425477129513
-7.90895447723862,-0.0002352530658063255
-7.8989494747373685,-0.00023726203314775973
-7.888944472236118,-0.00023929139197975105
-7.878939469734867,-0.00024134138057406576
-7.868934467233617,-0.0002434122403348493
-7.858929464732366,-0.00024550421584410074
-7.848924462231116,-0.00024761755490786054
-7.8389194597298655,-0.0002497525086031278
-7.828914457228614,-0.0002519093313255183
-7.818909454727364,-0.0002540882808376738
-7.808904452226113,-0.00025628961831844103
-7.798899449724862,-0.0002585136084128231
-7.788894447223612,-0.00026076051928272903
-7.7788894447223615,-0.0002630306226585234
-7.768884442221111,-0.0002653241938913962
-7.75887943971986,-0.00026764151200656626
-7.74887443721861,-0.000269982859757328
-7.738869434717358,-0.0002723485236799621
-7.728864432216108,-0.00027473879414951775
-7.718859429714858,-0.00027715396543648887
-7.708854427213607,-0.0002795943357643919
-7.698849424712357,-0.00028206020736826497
-7.688844422211106,-0.00028455188655410413
-7.678839419709854,-0.00028706968375924826
-7.668834417208604,-0.0002896139136137336
-7.658829414707354,-0.0002921848950026342
-7.648824412206103,-0.00029478295112939985
-7.638819409704853,-0.00029740840958021256
-7.628814407203602,-0.0003000616023893789
-7.618809404702351,-0.00030274286610577553
-7.6088044022011,-0.0003054525418603633
-7.59879939969985,-0.00030819097543478954
-7.588794397198599,-0.0003109585173311012
-7.578789394697349,-0.0003137555228425791
-7.568784392196099,-0.0003165823521257198
-7.558779389694847,-0.00031943937027338175
-7.548774387193597,-0.00032232694738911367
-7.538769384692346,-0.0003252454586626907
-7.5287643821910955,-0.00032819528444687034
-7.518759379689845,-0.0003311768103353998
-7.508754377188595,-0.00033419042724228506
-7.498749374687344,-0.000337236531482351
-7.488744372186093,-0.00034031552485311073
-7.478739369684842,-0.00034342781471796745
-7.4687343671835915,-0.0003465738140907702
-7.458729364682341,-0.0003497539417217519
-7.448724362181091,-0.00035296862218486233
-7.43871935967984,-0.000356218285966533
-7.428714357178589,-0.00035950336955588714
-7.418709354677339,-0.0003628243155364251
-7.408704352176088,-0.00036618157267921035
-7.398699349674837,-0.00036957559603757777
-7.388694347173587,-0.00037300684704339625
-7.3786893446723365,-0.00037647579360490264
-7.368684342171086,-0.00037998291020614554
-7.358679339669835,-0.00038352867800805547
-7.3486743371685845,-0.00038711358495117503
-7.338669334667333,-0.0003907381258600779
-7.328664332166083,-0.0003944028025494975
-7.318659329664833,-0.00039810812393220737
-7.308654327163582,-0.00040185460612866895
-7.298649324662332,-0.0004056427725784876
-7.288644322161081,-0.00040947315415370064
-7.278639319659829,-0.00041334628927393053
-7.268634317158579,-0.00041726272402343496
-7.258629314657329,-0.0004212230122700907
-7.248624312156078,-0.00042522771578632954
-7.238619309654828,-0.00042927740437207667
-7.228614307153577,-0.00043337265597971414
-7.218609304652326,-0.0004375140568411039
-7.208604302151075,-0.00044170220159671364
-7.198599299649825,-0.00044593769342686685
-7.188594297148574,-0.0004502211441851681
-7.178589294647324,-0.0004545531745341266
-7.168584292146074,-0.00045893441408302344
-7.158579289644822,-0.0004633655015280561
-7.148574287143572,-0.00046784708479479827
-7.138569284642321,-0.00047237982118301735
-7.12856428214107,-0.0004769643775138801
-7.11855927963982,-0.0004816014302796005
-7.10855427713857,-0.000486291665795553
-7.098549274637319,-0.0004910357803549061
-7.088544272136068,-0.0004958344803858101
-7.078539269634817,-0.0005006884826111843
-7.0685342671335665,-0.0005055985142111431
-7.058529264632316,-0.0005105653129881116
-7.048524262131066,-0.0005155896275346669
-7.038519259629815,-0.0005206722174041497
-7.028514257128564,-0.0005258138532841016
-7.018509254627314,-0.0005310153171725583
-7.0085042521260625,-0.0005362774025572613
-6.998499249624812,-0.0005416009145978208
-6.988494247123562,-0.0005469866703108901
-6.9784892446223115,-0.00055243549875839
-6.968484242121061,-0.0005579482412388367
-6.95847923961981,-0.0005635257514818231
-6.9484742371185595,-0.0005691688958457024
-6.938469234617308,-0.0005748785535185265
-6.928464232116058,-0.0005806556167222845
-6.9184592296148075,-0.0005865009909205092
-6.908454227113557,-0.0005924155950292782
-6.898449224612307,-0.0005984003616316941
-6.888444222111056,-0.0006044562371958687
-6.878439219609805,-0.000610584182296487
-6.868434217108554,-0.0006167851718399965
-6.858429214607304,-0.0006230601952934719
-6.848424212106053,-0.0006294102569172331
-6.838419209604803,-0.0006358363760012439
-6.8284142071035525,-0.0006423395871053717
-6.818409204602301,-0.0006489209403035559
-6.80840420210105,-0.0006555815014319461
-6.7983991995998,-0.0006623223523410647
-6.788394197098549,-0.0006691445911520661
-6.778389194597299,-0.0006760493325171348
-6.768384192096049,-0.0006830377078840919
-6.758379189594797,-0.0006901108657652751
-6.748374187093547,-0.0006972699720107438
-6.738369184592296,-0.0007045162100858791
-6.728364182091045,-0.0007118507813534284
-6.718359179589795,-0.0007192749053600797
-6.708354177088545,-0.0007267898201275982
-6.698349174587294,-0.0007343967824486142
-6.688344172086043,-0.0007420970681871051
-6.678339169584793,-0.0007498919725836519
-6.668334167083541,-0.0007577828105655198
-6.658329164582291,-0.0007657709170616281
-6.648324162081041,-0.0007738576473224858
-6.63831915957979,-0.0007820443772451384
-6.62831415707854,-0.0007903325037031954
-6.618309154577289,-0.0007987234448820065
-6.6083041520760375,-0.0008072186406190473
-6.598299149574787,-0.0008158195527495629
-6.588294147073537,-0.0008245276654575613
-6.578289144572286,-0.0008333444856321848
-6.568284142071036,-0.0008422715432295432
-6.558279139569785,-0.0008513103916400627
-6.5482741370685345,-0.0008604626080614015
-6.538269134567283,-0.0008697297938770097
-6.528264132066033,-0.0008791135750403707
-6.5182591295647825,-0.0008886156024649995
-6.508254127063532,-0.0008982375524202375
-6.498249124562282,-0.0009079811269329108
-6.4882441220610305,-0.0009178480541948981
-6.47823911955978,-0.0009278400889766601
-6.468234117058529,-0.0009379590130467873
-6.4582291145572785,-0.0009482066355975996
-6.448224112056028,-0.0009585847936768621
-6.438219109554778,-0.0009690953526256475
-6.4282141070535275,-0.0009797402065223847
-6.418209104552276,-0.0009905212786331455
-6.408204102051025,-0.0010014405218681964
-6.398199099549775,-0.0010124999192448404
-6.388194097048524,-0.0010237014843566014
-6.378189094547274,-0.0010350472618487567
-6.3681840920460235,-0.0010465393279002375
-6.358179089544772,-0.0010581797907119423
-6.348174087043522,-0.0010699707910014435
-6.338169084542271,-0.00108191450250413
-6.32816408204102,-0.001094013132480743
-6.31815907953977,-0.0011062689222313753
-6.30815407703852,-0.0011186841476158486
-6.298149074537269,-0.0011312611195805195
-6.288144072036018,-0.0011440021846914512
-6.278139069534768,-0.0011569097256739539
-6.268134067033516,-0.001169986161958455
-6.258129064532266,-0.001183233950232637
-6.248124062031016,-0.0011966555849998318
-6.238119059529765,-0.0012102535991435734
-6.228114057028515,-0.0012240305644982763
-6.218109054527264,-0.0012379890924259474
-6.2081040520260125,-0.0012521318343988307
-6.198099049524762,-0.0012664614825879143
-6.188094047023512,-0.0012809807704571797
-6.178089044522261,-0.0012956924733634567
-6.168084042021011,-0.0013105994091617645
-6.15807903951976,-0.0013257044388159886
-6.148074037018509,-0.001341010467014718
-6.138069034517258,-0.0013565204427920838
-6.128064032016008,-0.0013722373601533658
-6.118059029514757,-0.001388164258705218
-6.108054027013507,-0.0014043042242901946
-6.098049024512257,-0.0014206603896254188
-6.0880440220110055,-0.001437235934945029
-6.078039019509755,-0.0014540340886461938
-6.068034017008504,-0.0014710581279383267
-6.0580290145072535,-0.0014883113794951612
-6.048024012006003,-0.0015057972201093653
-6.038019009504753,-0.001523519077349239
-6.028014007003502,-0.001541480430217125
-6.018009004502251,-0.0015596848098090486
-6.008004002001001,-0.0015781357999751265
-5.99799899949975,-0.001596837037980213
-5.987993996998499,-0.0016157922151642285
-5.977988994497249,-0.0016350050776016156
-5.9679839919959985,-0.0016544794267592377
-5.957978989494747,-0.0016742191201521042
-5.947973986993497,-0.0016942280719961782
-5.9379689844922465,-0.0017145102538575214
-5.927963981990995,-0.0017350696952969783
-5.917958979489745,-0.0017559104845095
-5.907953976988495,-0.0017770367689572712
-5.897948974487243,-0.0017984527559955956
-5.887943971985993,-0.0018201627134905563
-5.877938969484743,-0.0018421709704273686
-5.867933966983492,-0.001864481917508229
-5.857928964482241,-0.0018871000077384896
-5.847923961980991,-0.0019100297569998026
-5.83791895947974,-0.001933275744608915
-5.827913956978489,-0.0019568426138606284
-5.817908954477239,-0.0019807350725533682
-5.807903951975988,-0.002004957893495785
-5.797898949474737,-0.0020295159149926003
-5.787893946973487,-0.002054414041307908
-5.777888944472236,-0.0020796572431040113
-5.767883941970986,-0.0021052505578537154
-5.757878939469735,-0.0021311990902239657
-5.747873936968484,-0.002157508012428507
-5.737868934467234,-0.002184182564547207
-5.727863931965983,-0.002211228054809464
-5.717858929464732,-0.002238649859839023
-5.707853926963482,-0.0022664534248573783
-5.697848924462232,-0.002294644263842767
-5.68784392196098,-0.0023232279596415665
-5.67783891945973,-0.0023522101640288135
-5.66783391695848,-0.002381596597714285
-5.6578289144572285,-0.002411393050290449
-5.647823911955978,-0.0024416053801183555
-5.637818909454728,-0.0024722395141473885
-5.6278139069534765,-0.002503301447664418
-5.617808904452226,-0.0025347972439678877
-5.607803901950976,-0.002566733033961912
-5.597798899449725,-0.002599115015665294
-5.587793896948474,-0.00263194945363008
-5.577788894447224,-0.002665242678263991
-5.5677838919459735,-0.002699001085050764
-5.557778889444722,-0.002733231133662018
-5.547773886943472,-0.0027679393469540944
-5.5377688844422215,-0.002803132309842838
-5.52776388194097,-0.0028388166680488928
-5.51775887943972,-0.0028749991267057965
-5.5077538769384695,-0.002911686448822671
-5.497748874437219,-0.0029488854535928144
-5.487743871935968,-0.002986603014539195
-5.4777388694347176,-0.0030248460574871456
-5.467733866933467,-0.0030636215583542937
-5.457728864432216,-0.0031029365407469656
-5.447723861930966,-0.003142798073351913
-5.437718859429715,-0.003183213267111591
-5.427713856928464,-0.0032241892721704608
-5.417708854427214,-0.0032657332745792676
-5.407703851925963,-0.003307852492743535
-5.397698849424713,-0.0033505541736015996
-5.387693846923462,-0.00339384558851705
-5.377688844422211,-0.0034377340288692234
